ID,Points:0,Points:1
20.1486,0.414507,0.0851529
20.1507,0.414475,0.0843072
20.1533,0.414477,0.0828026
20.1558,0.414428,0.0818186
20.1585,0.414393,0.0805527
20.1614,0.414356,0.0791342
20.1646,0.414314,0.077553
20.1681,0.414265,0.0757949
20.172,0.414207,0.0738435
20.1762,0.414138,0.0716801
20.1808,0.414054,0.0692841
20.187,0.413844,0.0671538
20.1922,0.413817,0.0632198
20.2042,0.413345,0.059273
20.2077,0.413446,0.0538337
20.2192,0.412861,0.051361
20.2364,0.412074,0.0447558
20.2506,0.411482,0.0344716
20.273,0.410196,0.0236433
20.2893,0.409165,0.0240914
20.3071,0.408041,0.0245801
20.3267,0.406814,0.0251141
20.3481,0.405477,0.0256983
20.3718,0.40402,0.0263388
20.3978,0.402437,0.0270417
20.4265,0.400721,0.0278141
20.4582,0.398863,0.0286639
20.4933,0.396853,0.0295994
20.5322,0.39468,0.0306302
20.5754,0.392332,0.0317667
20.623,0.389815,0.0330118
20.6718,0.38732,0.0342752
20.7205,0.384898,0.0355285
20.7692,0.382547,0.0367712
20.818,0.380262,0.0380033
20.8667,0.37804,0.0392246
20.9155,0.375877,0.0404348
20.9642,0.373769,0.0416337
21.013,0.371711,0.0428212
21.0617,0.369701,0.0439972
21.1105,0.367733,0.0451614
21.1593,0.365804,0.0463136
21.208,0.363911,0.0474536
21.2568,0.362048,0.0485815
21.3056,0.360213,0.0496967
21.3543,0.358401,0.0507994
21.4031,0.356611,0.0518891
21.4519,0.354842,0.0529664
21.5006,0.353093,0.0540308
21.5494,0.351364,0.0550827
21.5982,0.349651,0.0561221
21.6469,0.347956,0.0571488
21.6957,0.346278,0.0581629
21.7445,0.344614,0.0591644
21.7933,0.342964,0.0601535
21.842,0.341327,0.0611301
21.8908,0.339703,0.0620941
21.9396,0.33809,0.0630458
21.9884,0.336487,0.063985
22.0371,0.334893,0.0649118
22.0859,0.333307,0.0658263
22.1347,0.331728,0.0667284
22.1835,0.330156,0.0676181
22.2323,0.328589,0.0684955
22.281,0.327026,0.0693607
22.3298,0.325467,0.0702135
22.3786,0.32391,0.0710541
22.4274,0.322354,0.0718825
22.4762,0.320799,0.0726987
22.5249,0.319243,0.0735027
22.5737,0.317686,0.0742944
22.6225,0.316126,0.0750741
22.6713,0.314562,0.0758417
22.7201,0.312994,0.0765972
22.7688,0.311421,0.0773406
22.8176,0.309841,0.078072
22.8664,0.308254,0.0787913
22.9152,0.306659,0.0794986
22.964,0.305057,0.0801939
23.0127,0.30345,0.0808772
23.0615,0.301836,0.0815483
23.1103,0.300218,0.0822076
23.1591,0.298594,0.0828548
23.2079,0.296967,0.0834899
23.2567,0.295337,0.084113
23.3054,0.293704,0.084724
23.3542,0.292068,0.0853229
23.403,0.290431,0.0859098
23.4518,0.288793,0.0864846
23.5005,0.287154,0.0870474
23.5493,0.285516,0.087598
23.5981,0.283878,0.0881366
23.6469,0.282241,0.088663
23.6957,0.280606,0.0891774
23.7444,0.278974,0.0896797
23.7932,0.277345,0.0901698
23.842,0.275719,0.0906478
23.8908,0.274097,0.0911137
23.9396,0.27248,0.0915675
23.9883,0.270869,0.0920092
24.0371,0.269263,0.0924387
24.0859,0.267664,0.0928561
24.1347,0.266071,0.0932614
24.1835,0.264487,0.0936545
24.2323,0.26291,0.0940354
24.281,0.261343,0.0944042
24.3298,0.259785,0.0947607
24.3786,0.258236,0.0951051
24.4274,0.256698,0.0954374
24.4762,0.25517,0.0957574
24.525,0.253651,0.0960653
24.5737,0.25214,0.096361
24.6225,0.250639,0.0966445
24.6713,0.249145,0.0969158
24.7201,0.247659,0.097175
24.7689,0.24618,0.097422
24.8177,0.244708,0.0976568
24.8665,0.243243,0.0978794
24.9152,0.241784,0.0980899
24.964,0.240329,0.0982882
25.0128,0.238881,0.0984743
25.0616,0.237437,0.0986483
25.1104,0.235997,0.0988101
25.1592,0.234561,0.0989598
25.208,0.233129,0.0990973
25.2568,0.231699,0.0992226
25.3055,0.230273,0.0993358
25.3543,0.228848,0.0994368
25.4031,0.227426,0.0995257
25.4519,0.226004,0.0996025
25.5007,0.224584,0.099667
25.5495,0.223164,0.0997195
25.5983,0.221744,0.0997598
25.6471,0.220325,0.0997879
25.6959,0.218904,0.0998039
25.7446,0.217482,0.0998078
25.7932,0.216065,0.0997996
25.8415,0.214655,0.0997796
25.8894,0.213252,0.0997479
25.9371,0.211856,0.0997048
25.9844,0.210466,0.0996506
26.0314,0.209084,0.0995854
26.0781,0.207709,0.0995094
26.1246,0.206344,0.099423
26.1707,0.204986,0.0993262
26.2165,0.203639,0.0992194
26.262,0.2023,0.0991026
26.3072,0.200972,0.0989762
26.3522,0.199654,0.0988403
26.3968,0.198347,0.098695
26.4412,0.19705,0.0985407
26.4852,0.195766,0.0983774
26.529,0.194492,0.0982055
26.5725,0.193231,0.098025
26.6157,0.191982,0.0978361
26.6587,0.190745,0.097639
26.7013,0.189521,0.097434
26.7437,0.188309,0.0972211
26.7858,0.187111,0.0970005
26.8277,0.185926,0.0967724
26.8692,0.184755,0.096537
26.9105,0.183597,0.0962943
26.9516,0.182452,0.0960447
26.9923,0.181322,0.0957881
27.0329,0.180206,0.0955248
27.0731,0.179104,0.095255
27.1131,0.178016,0.0949787
27.1529,0.176943,0.094696
27.1924,0.175884,0.0944072
27.2316,0.17484,0.0941124
27.2706,0.17381,0.0938117
27.3094,0.172795,0.0935053
27.3479,0.171795,0.0931932
27.3862,0.17081,0.0928755
27.4242,0.16984,0.0925525
27.462,0.168884,0.0922242
27.4996,0.167942,0.0918908
27.5369,0.167014,0.0915523
27.574,0.166097,0.0912089
27.6109,0.165192,0.0908606
27.6475,0.164298,0.0905076
27.6839,0.163414,0.0901501
27.7202,0.162539,0.089788
27.7561,0.161673,0.0894216
27.7919,0.160815,0.0890508
27.8274,0.159964,0.0886759
27.8628,0.159121,0.0882969
27.8979,0.158283,0.0879139
27.9328,0.157451,0.0875271
27.9674,0.156624,0.0871364
28.0019,0.155802,0.0867421
28.0362,0.154984,0.0863441
28.0702,0.154169,0.0859428
28.104,0.153358,0.085538
28.1377,0.152549,0.0851299
28.1711,0.151743,0.0847186
28.2043,0.150938,0.0843042
28.2373,0.150135,0.0838867
28.2701,0.149333,0.0834664
28.3027,0.148532,0.0830432
28.3351,0.147731,0.0826172
28.3673,0.146931,0.0821887
28.3993,0.14613,0.0817575
28.4311,0.145328,0.0813239
28.4627,0.144526,0.0808879
28.4941,0.143722,0.0804496
28.5253,0.142917,0.0800091
28.5563,0.142111,0.0795664
28.5871,0.141303,0.0791218
28.6177,0.140492,0.0786751
28.6481,0.139679,0.0782266
28.6783,0.138864,0.0777763
28.7083,0.138046,0.0773243
28.7381,0.137225,0.0768707
28.7677,0.136401,0.0764156
28.7971,0.135574,0.075959
28.8263,0.134744,0.075501
28.8554,0.13391,0.0750417
28.8842,0.133073,0.0745812
28.9128,0.132232,0.0741196
28.9413,0.131387,0.0736569
28.9696,0.130538,0.0731933
28.9976,0.129687,0.0727288
29.0255,0.128832,0.0722634
29.0532,0.127975,0.0717973
29.0807,0.127116,0.0713305
29.108,0.126255,0.0708631
29.1351,0.125394,0.0703953
29.162,0.124532,0.0699269
29.1887,0.12367,0.0694582
29.2153,0.122808,0.0689892
29.2416,0.121947,0.0685199
29.2678,0.121087,0.0680505
29.2938,0.120228,0.067581
29.3196,0.119371,0.0671114
29.3452,0.118517,0.0666418
29.3706,0.117664,0.0661722
29.3959,0.116814,0.0657028
29.421,0.115967,0.0652334
29.4459,0.115123,0.0647643
29.4706,0.114283,0.0642956
29.4951,0.113447,0.0638271
29.5195,0.112614,0.0633589
29.5437,0.111786,0.0628912
29.5677,0.110962,0.0624239
29.5915,0.110143,0.0619572
29.6152,0.109328,0.061491
29.6387,0.108518,0.0610253
29.662,0.107714,0.0605603
29.6852,0.106915,0.0600959
29.7081,0.106122,0.0596323
29.731,0.105334,0.0591693
29.7536,0.104552,0.0587071
29.7761,0.103776,0.0582458
29.7985,0.103006,0.0577852
29.8206,0.102242,0.0573254
29.8427,0.101484,0.0568665
29.8645,0.100733,0.0564086
29.8862,0.0999885,0.0559516
29.9078,0.0992503,0.0554956
29.9291,0.0985188,0.0550405
29.9504,0.0977939,0.0545864
29.9715,0.0970759,0.0541334
29.9924,0.0963648,0.0536814
30.0132,0.0956605,0.0532305
30.0338,0.0949632,0.0527806
30.0543,0.0942729,0.0523319
30.0747,0.0935897,0.0518843
30.0949,0.0929137,0.0514379
30.1149,0.0922447,0.0509926
30.1349,0.0915828,0.0505484
30.1546,0.0909282,0.0501055
30.1743,0.0902807,0.0496637
30.1938,0.0896405,0.0492231
30.2131,0.0890075,0.0487838
30.2324,0.0883819,0.0483457
30.2515,0.0877634,0.0479088
30.2705,0.0871522,0.0474732
30.2893,0.0865483,0.0470388
30.308,0.0859515,0.0466056
30.3266,0.085362,0.0461737
30.345,0.0847797,0.0457431
30.3634,0.0842048,0.0453137
30.3816,0.083637,0.0448857
30.3997,0.0830763,0.0444588
30.4176,0.0825229,0.0440333
30.4355,0.0819766,0.0436091
30.4532,0.0814375,0.0431862
30.4708,0.0809046,0.0427638
30.4884,0.0803783,0.0423424
30.5058,0.0798567,0.0419207
30.5233,0.0793391,0.0414987
30.5407,0.0788252,0.0410765
30.558,0.0783146,0.040654
30.5753,0.0778066,0.0402311
30.5925,0.0773008,0.0398081
30.6097,0.0767969,0.0393847
30.6268,0.0762943,0.0389611
30.6439,0.0757927,0.0385372
30.661,0.0752916,0.0381131
30.678,0.0747906,0.0376887
30.6949,0.0742894,0.0372641
30.7118,0.0737874,0.0368393
30.7286,0.0732843,0.0364142
30.7454,0.0727798,0.035989
30.7622,0.0722734,0.0355635
30.7789,0.0717648,0.0351379
30.7955,0.0712537,0.0347121
30.8121,0.0707396,0.0342862
30.8287,0.0702224,0.0338602
30.8452,0.0697015,0.033434
30.8616,0.0691767,0.0330077
30.878,0.0686477,0.0325813
30.8944,0.0681141,0.0321549
30.9107,0.0675757,0.0317284
30.9269,0.0670323,0.031302
30.9431,0.0664834,0.0308755
30.9592,0.0659289,0.0304492
30.9753,0.0653685,0.0300228
30.9913,0.0648018,0.0295966
31.0073,0.0642287,0.0291704
31.0232,0.063649,0.0287444
31.0391,0.0630623,0.0283186
31.0549,0.0624686,0.027893
31.0706,0.0618676,0.0274676
31.0863,0.0612591,0.0270425
31.1019,0.0606428,0.0266177
31.1175,0.0600186,0.0261932
31.133,0.0593864,0.0257691
31.1484,0.058746,0.0253454
31.1638,0.0580972,0.0249221
31.1791,0.0574398,0.0244992
31.1944,0.0567739,0.0240769
31.2096,0.0560991,0.0236551
31.2247,0.0554155,0.0232339
31.2397,0.0547229,0.0228132
31.2547,0.0540211,0.0223932
31.2696,0.0533103,0.0219739
31.2845,0.0525902,0.0215554
31.2992,0.0518609,0.0211376
31.314,0.0511222,0.0207206
31.3286,0.0503741,0.0203045
31.3431,0.0496166,0.0198892
31.3576,0.0488497,0.0194749
31.372,0.0480734,0.0190615
31.3864,0.0472876,0.0186492
31.4006,0.0464925,0.0182379
31.4148,0.0456879,0.0178277
31.4289,0.0448739,0.0174186
31.4429,0.0440507,0.0170108
31.4569,0.0432183,0.0166042
31.4707,0.0423766,0.0161988
31.4845,0.0415257,0.0157947
31.4982,0.0406658,0.015392
31.5118,0.039797,0.0149907
31.5253,0.0389194,0.0145909
31.5387,0.038033,0.0141925
31.552,0.0371431,0.0137979
31.565,0.0362587,0.013411
31.5777,0.0353808,0.0130317
31.5901,0.0345094,0.01266
31.6022,0.0336451,0.0122959
31.6141,0.0327882,0.0119391
31.6257,0.0319389,0.0115897
31.637,0.0310977,0.0112474
31.6481,0.0302646,0.0109123
31.6589,0.0294402,0.0105841
31.6694,0.0286245,0.0102629
31.6797,0.0278179,0.00994842
31.6898,0.0270204,0.00964065
31.6996,0.0262325,0.00933949
31.7093,0.0254545,0.00904487
31.7186,0.0246871,0.00875667
31.7278,0.0239307,0.0084748
31.7367,0.0231858,0.00819918
31.7455,0.0224528,0.00792973
31.754,0.021732,0.00766634
31.7623,0.0210237,0.00740892
31.7705,0.0203281,0.00715736
31.7784,0.0196454,0.00691156
31.7861,0.0189756,0.00667143
31.7937,0.0183189,0.00643688
31.8011,0.0176754,0.00620778
31.8083,0.0170448,0.00598401
31.8153,0.0164274,0.0057655
31.8221,0.0158231,0.00555215
31.8288,0.0152317,0.00534383
31.8354,0.0146531,0.00514041
31.8417,0.0140873,0.00494182
31.8479,0.0135341,0.00474796
31.854,0.0129935,0.00455873
31.8599,0.0124651,0.00437403
31.8657,0.011949,0.00419375
31.8714,0.0114448,0.0040178
31.8769,0.0109524,0.00384607
31.8822,0.0104717,0.00367847
31.8875,0.0100023,0.00351492
31.8926,0.0095442,0.00335531
31.8976,0.00909708,0.00319955
31.9024,0.00866077,0.00304756
31.9072,0.00823505,0.00289924
31.9118,0.00781975,0.00275453
31.9164,0.0074146,0.00261332
31.9208,0.00701938,0.00247552
31.9251,0.00663391,0.00234106
31.9293,0.00625796,0.00220986
31.9334,0.00589134,0.00208185
31.9374,0.00553387,0.00195696
31.9413,0.00518527,0.00183509
31.9451,0.00484538,0.00171617
31.9488,0.00451398,0.00160015
31.9525,0.0041909,0.00148694
31.956,0.0038759,0.00137647
31.9595,0.00356883,0.0012687
31.9628,0.00326948,0.00116353
31.9661,0.00297767,0.00106093
31.9693,0.0026932,0.000960807
31.9725,0.0024159,0.000863115
31.9755,0.00214557,0.000767783
31.9785,0.00188206,0.000674764
31.9815,0.0016252,0.000584
31.9843,0.00137485,0.000495445
31.9871,0.00113082,0.000409037
31.9898,0.000892931,0.000324714
31.9924,0.000661055,0.000242435
31.995,0.000435022,0.000162144
31.9975,0.000214715,8.38022E-05
32,0,0
